%   Sensor                 x[m]                 y[m]
         1      0.9999524765071   2.532896734556e-06
         2      0.9997552617855   1.302589314367e-05
         3      0.9994229192498   3.065831683535e-05
         4      0.9989913782966     5.3509203266e-05
         5      0.9985073951285   7.916352141955e-05
         6      0.9980234188979   0.0001049478944516
         7      0.9975918958318   0.0001281341026633
         8      0.9972595745906   0.0001461657241151
         9      0.9970623755985   0.0001569535960211
        10       0.996971935959   0.0001619138254187
        11      0.9967938256687   0.0001716826872257
        12      0.9964936829173   0.0001881971833996
        13      0.9961039584383   0.0002097024442392
        14      0.9956668732651   0.0002338404051417
        15      0.9952297850674   0.0002579233550819
        16      0.9948400527903   0.0002792867806128
        17      0.9945399007553   0.0002956324230447
        18      0.9943617836075   0.0003052765576211
        19      0.9942359802841   0.0003120697518436
        20      0.9938920309012   0.0003305360597432
        21      0.9933123913948   0.0003612389609707
        22      0.9925596933642   0.0004002687002049
        23      0.9917154555562   0.0004428146799191
        24      0.9908711476524     0.00048394306884
        25      0.9901182688932   0.0005193178196925
        26      0.9895384142309   0.0005456694879934
        27      0.9891943059188   0.0005609216697138
        28      0.9890162486599    0.000568711991459
        29      0.9886214508642   0.0005857914965046
        30      0.9879561223057   0.0006139479113496
        31      0.9870921624571   0.0006494318863314
        32       0.986123154897   0.0006879469684738
        33      0.9851541018458   0.0007253040946248
        34      0.9842900247068    0.000757802500206
        35      0.9836245565153    0.000782404619791
        36      0.9832296555768   0.0007968586727782
        37      0.9830032616339   0.0008050794397115
        38       0.982458658383   0.0008245430525805
        39      0.9815408684102   0.0008564060432892
        40      0.9803490681473   0.0008960130033612
        41      0.9790123462618   0.0009380374806751
        42      0.9776755463052   0.0009775034320745
        43      0.9764835447509    0.001010513719442
        44      0.9755655151424    0.001034523426781
        45      0.9750207348798    0.001048186053103
        46      0.9747164077443    0.001055625865257
        47      0.9739982742958    0.001072669818947
        48      0.9727880450695    0.001099797520369
        49      0.9712165047719    0.001132053469738
        50       0.969453886954      0.0011642691752
        51      0.9676911980608     0.00119233367251
        52       0.966119474509    0.001213886520791
        53        0.96490902712    0.001228272270391
        54      0.9641907325212    0.001235904123737
        55      0.9637729707163    0.001240063145175
        56      0.9627576074827    0.001249133077527
        57      0.9610464819282    0.001260946612162
        58      0.9588245345462    0.001270037370052
        59       0.956332497624    0.001272273486197
        60      0.9538404649268    0.001266616021109
        61      0.9516185284385    0.001255354680335
        62      0.9499074158528    0.001242939212689
        63       0.948892062199    0.001234111902618
        64      0.9483349805993    0.001228892296174
        65      0.9470384968463    0.001215644402705
        66      0.9448536290268    0.001189278064004
        67      0.9420165802874    0.001147005210101
        68      0.9388348415916     0.00108797709032
        69       0.935653379221    0.001015698807154
        70      0.9328170429336    0.000939262925769
        71      0.9306330232821   0.0008722257901938
        72      0.9293371660457   0.0008289355902879
        73       0.928665201593   0.0008055770918602
        74      0.9271724705492    0.000752206072674
        75      0.9246570802888   0.0006572448089958
        76      0.9213911690748   0.0005246861135387
        77       0.917728804287   0.0003638460562081
        78      0.9140670124897   0.0001904529911159
        79       0.910802578623   2.552875142776e-05
        80      0.9082889471321  -0.0001079634204332
        81      0.9067975152389  -0.0001897960740085
        82      0.9058988913929  -0.0002401576545815
        83      0.9036612082516  -0.0003687467542762
        84      0.8998907346898  -0.0005948655248784
        85      0.8949957080596  -0.0009056540104281
        86      0.8895071025113   -0.001276475950373
        87      0.8840200649237   -0.001669857434316
        88      0.8791290809819   -0.002038811415579
        89      0.8753634202067   -0.002334175719601
        90      0.8731292921275   -0.002513914432638
        91      0.8721304399561    -0.00259538871032
        92      0.8702193893165   -0.002753097882207
        93      0.8669993074947   -0.003023775413471
        94      0.8628188037696   -0.003384215022325
        95      0.8581312265651   -0.003800120207728
        96      0.8534447162785    -0.00422788592457
        97      0.8492669633981   -0.004618905659095
        98      0.8460501564339   -0.004925988572763
        99      0.8441415248342   -0.005110589316447
       100      0.8432926791278   -0.005193229553906
       101      0.8416787092568   -0.005351369284135
       102      0.8389591807096   -0.005621039419256
       103       0.835428486289   -0.005977104822178
       104      0.8314694876712   -0.006384296568447
       105      0.8275113419453   -0.006799695078561
       106      0.8239828465439   -0.007176920061976
       107      0.8212659359108   -0.007471780499704
       108      0.8196538998149   -0.007648527556279
       109      0.8188361422929    -0.00773865409458
       110      0.8170546059741   -0.007935789804519
       111      0.8140526802045   -0.008270490639639
       112      0.8101552487373   -0.008709700700551
       113      0.8057848508914   -0.009208373322797
       114      0.8014151768542   -0.009713352684147
       115        0.79751961159    -0.01016882347295
       116      0.7945199075194    -0.01052288256785
       117      0.7927400123035    -0.01073431764779
       118      0.7919138075006    -0.01083276025471
       119      0.7902651020173     -0.0110299274078
       120      0.7874870378433    -0.01136472570958
       121      0.7838803373779    -0.01180423781755
       122      0.7798361001045      -0.012303645949
       123      0.7757927233593    -0.01280997105555
       124      0.7721882416022    -0.01326731726893
       125      0.7694128187817     -0.0136233469232
       126      0.7677660643875    -0.01383619704408
       127      0.7671485271544    -0.01391626943781
       128      0.7662325329098    -0.01403512533007
       129      0.7646889990954     -0.0142359626151
       130      0.7626848867661    -0.01449773752634
       131      0.7604373891279    -0.01479260956168
       132      0.7581900622811    -0.01508878077485
       133       0.756186390305    -0.01535390536916
       134      0.7546433807272     -0.0155587304237
       135      0.7537277737207    -0.01568053196254
       136      0.7533166775488    -0.01573528814441
       137      0.7525263077209    -0.01584069318721
       138      0.7511944474393    -0.01601866134737
       139      0.7494651449381    -0.01625038976224
       140      0.7475258014726    -0.01651113885957
       141      0.7455865800565    -0.01677279408708
       142      0.7438575922363     -0.0170068587864
       143      0.7425261065798    -0.01718760827354
       144      0.7417360134763    -0.01729506779974
       145      0.7413382324506    -0.01734922614867
       146       0.740477609134    -0.01746652788262
       147      0.7390273665623    -0.01766458426637
       148      0.7371443577793    -0.01792245662081
       149      0.7350326385518    -0.01821258006893
       150       0.732921047304    -0.01850363361409
       151      0.7310383684926    -0.01876390404693
       152      0.7295885187491    -0.01896481532285
       153      0.7287281856031    -0.01908422588063
       154      0.7283503094827    -0.01913671776777
       155      0.7276425221225    -0.01923511018429
       156      0.7264498100647     -0.0194011206461
       157      0.7249011547283    -0.01961705247858
       158       0.723164364557     -0.0198597102057
       159      0.7214276435893    -0.02010286276083
       160      0.7198791666814    -0.02032007041329
       161      0.7186866670412    -0.02048759972806
       162      0.7179790365875    -0.02058711407602
       163      0.7176411700368    -0.02063465484718
       164      0.7169467161811    -0.02073242363504
       165      0.7157764670998    -0.02089733581676
       166      0.7142569677398    -0.02111175348695
       167      0.7125528611058    -0.02135259576777
       168      0.7108488071076    -0.02159381020262
       169      0.7093294434589    -0.02180918740122
       170      0.7081593559407    -0.02197524189345
       171      0.7074650214269    -0.02207385447207
       172      0.7070982733339    -0.02212596416765
       173      0.7062706724582    -0.02224360895101
       174      0.7048760502238    -0.02244202765206
       175      0.7030652139132    -0.02269999285988
       176      0.7010343776988    -0.02298975922185
       177      0.6990036125209    -0.02328002298626
       178      0.6971929593648    -0.02353927065175
       179      0.6957985551742    -0.02373921610787
       180      0.6949711153608    -0.02385798865972
       181      0.6945871479765    -0.02391313176725
       182      0.6938211937164    -0.02402319209825
       183      0.6925304617416    -0.02420886557535
       184      0.6908545318713     -0.0244503303828
       185      0.6889750023863    -0.02472162517423
       186      0.6870955445279    -0.02499341574302
       187      0.6854197993333    -0.02523615881816
       188      0.6841292872135    -0.02542335406218
       189      0.6833634953537    -0.02553453847708
       190      0.6829536990864    -0.02559405329339
       191      0.6820189109155    -0.02572983737006
       192       0.680443652751    -0.02595876776497
       193      0.6783982365405    -0.02625614588691
       194      0.6761042485045    -0.02658966241693
       195      0.6738102329355      -0.026922989434
       196      0.6717647457364    -0.02721987893285
       197      0.6701894030606    -0.02744822762608
       198      0.6692545524638    -0.02758358201705
       199      0.6688483322826    -0.02764235785673
       200      0.6680974473151    -0.02775093447963
       201      0.6668320562232    -0.02793373530496
       202       0.665188946998    -0.02817088581014
       203      0.6633461422001    -0.02843675424609
       204      0.6615033530872    -0.02870273129279
       205      0.6598602843031    -0.02894016183014
       206       0.658594941356    -0.02912329603142
       207      0.6578440919517     -0.0292321189092
       208      0.6574509727514    -0.02928910890439
       209      0.6565704630499    -0.02941688249793
       210      0.6550867480206    -0.02963285588466
       211      0.6531603591084     -0.0299145480036
       212      0.6510001155296    -0.03023221736017
       213      0.6488401538244    -0.03055179715582
       214      0.6469144916697    -0.03083841497877
       215       0.645431641839    -0.03106025237468
       216      0.6445517712339    -0.03119235753718
       217       0.644119457677      -0.031257323738
       218      0.6432052901029    -0.03139471306091
       219      0.6416648156394    -0.03162657503224
       220      0.6396646067612    -0.03192803291783
       221      0.6374213354186    -0.03226622869151
       222      0.6351780050239    -0.03260403209729
       223      0.6331776438915    -0.03290447833683
       224      0.6316369881705    -0.03313513595204
       225      0.6307226867069    -0.03327163565296
       226      0.6302651114209    -0.03333983050155
       227      0.6292805474046     -0.0334862756882
       228      0.6276212310197    -0.03373207799662
       229      0.6254663189617    -0.03404913995669
       230      0.6230490328133    -0.03440143748843
       231      0.6206311625926    -0.03474969942051
       232      0.6184747446151    -0.03505635635401
       233      0.6168136354458    -0.03528977156581
       234      0.6158277471529    -0.03542706677309
       235      0.6154160131732    -0.03548414550724
       236      0.6146933255192    -0.03558405234628
       237      0.6134753596379    -0.03575156878309
       238      0.6118936729767    -0.03596771535849
       239      0.6101195680858    -0.03620865563326
       240      0.6083453108332    -0.03644847266995
       241       0.606763231336    -0.03666172318948
       242      0.6055447977868    -0.03682579189613
       243      0.6048217646804    -0.03692315199959
       244      0.6045267465751    -0.03696288136906
       245      0.6040255089391    -0.03703039701585
       246      0.6031808532995    -0.03714427766806
       247      0.6020841217473    -0.03729239694151
       248      0.6008541650542    -0.03745893819424
       249      0.5996242830351    -0.03762602969361
       250       0.598527744016     -0.0377755676734
       251      0.5976833175853    -0.03789113728358
       252      0.5971822492591    -0.03795990051333
       253      0.5969502683518    -0.03799176786836
       254      0.5964886533358    -0.03805521014719
       255      0.5957107791496    -0.03816229857667
       256      0.5947007714085    -0.03830165952651
       257      0.5935680728886    -0.03845833155342
       258      0.5924354225891    -0.03861535188781
       259      0.5914255391752    -0.03875561088229
       260      0.5906478129995    -0.03886376842637
       261      0.5901863073143    -0.03892800042831
       262      0.5899509473071    -0.03896077083476
       263      0.5894357526496    -0.03903253242721
       264      0.5885675740225    -0.03915353790647
       265      0.5874402809558    -0.03931076894019
       266      0.5861760046906    -0.03948719689091
       267      0.5849117322321    -0.03966365212595
       268      0.5837844489802    -0.03982095350709
       269      0.5829162820376    -0.03994204273436
       270      0.5824010960111    -0.04001386618897
       271       0.582139730206    -0.04005029279385
       272      0.5815702950762    -0.04012962431338
       273      0.5806106871696    -0.04026320844872
       274      0.5793646307395     -0.0404364533699
       275       0.577967101825    -0.04063043688664
       276       0.576569521453    -0.04082404926764
       277      0.5753233323494    -0.04099633728584
       278       0.574363566496    -0.04112878223624
       279      0.5737940146957    -0.04120727227376
       280      0.5735384389038    -0.04124246652971
       281      0.5730473997811    -0.04131003787775
       282      0.5722198967704    -0.04142376386949
       283      0.5711453659989    -0.04157115459778
       284      0.5699401969777    -0.04173606082753
       285      0.5687349673873    -0.04190052374063
       286      0.5676602804499    -0.04204677146122
       287       0.566832591525    -0.04215913671191
       288      0.5663414150731    -0.04222570292106
       289       0.566057980817    -0.04226407996524
       290      0.5653729484897    -0.04235670857443
       291      0.5642184972486    -0.04251238693316
       292      0.5627193675828    -0.04271377218548
       293      0.5610379213316    -0.04293864650192
       294      0.5593563418522    -0.04316252254371
       295      0.5578568686829    -0.04336133393458
       296      0.5567020085036    -0.04351394813291
       297      0.5560166741059    -0.04360431333805
       298      0.5556759527004    -0.04364918506369
       299      0.5549473545128    -0.04374502118451
       300       0.553719498452    -0.04390617285994
       301      0.5521250752159    -0.04411479792168
       302       0.550336783077    -0.04434797959714
       303      0.5485483882262    -0.04458037233352
       304      0.5469537001669    -0.04478696326584
       305      0.5457255288364    -0.04494569332731
       306      0.5449966977685      -0.045039740674
       307      0.5446535679523    -0.04508397625098
       308      0.5439584722762    -0.04517349248991
       309      0.5427870843468    -0.04532407394681
       310      0.5412659963831    -0.04551906449872
       311      0.5395599559743    -0.04573697379758
       312      0.5378538020689    -0.04595399247274
       313      0.5363324214756    -0.04614668672072
       314      0.5351606851732    -0.04629453444713
       315      0.5344653321644    -0.04638203136074
       316       0.534109865758      -0.046426694841
       317       0.533330092321    -0.04652450068402
       318      0.5320159691973    -0.04668874707954
       319      0.5303094731014    -0.04690092333972
       320      0.5283954037018    -0.04713737851697
       321      0.5264811330345    -0.04737219853115
       322      0.5247741180084    -0.04758015883418
       323      0.5234593771027    -0.04773938616817
       324      0.5226791473284    -0.04783348457992
       325      0.5223295353542    -0.04787555643664
       326      0.5216589447463    -0.04795609993546
       327      0.5205288284683    -0.04809135310287
       328      0.5190612912108     -0.0482660800421
       329      0.5174152640632    -0.04846082934759
       330      0.5157690848568    -0.04865428907756
       331      0.5143011555443    -0.04882569109146
       332       0.513170572528    -0.04895698596324
       333      0.5124996371546    -0.04903460558695
       334      0.5121628692314    -0.04907348244071
       335      0.5114362757965     -0.0491571712618
       336      0.5102117752408    -0.04929762130657
       337      0.5086216641774    -0.04947890534588
       338      0.5068381442979    -0.04968075718162
       339      0.5050544497632    -0.04988105976571
       340      0.5034638883843    -0.05005834935417
       341      0.5022388517319     -0.0501940440388
       342      0.5015118622983    -0.05027422021699
       343      0.5011733535682    -0.05031146301549
       344      0.5004955951895    -0.05038585938091
       345      0.4993534014646    -0.05051072347038
       346      0.4978701849837    -0.05067190536489
       347      0.4962065778398    -0.05085139185467
       348      0.4945428242545    -0.05102951575927
       349      0.4930592302022    -0.05118718448688
       350      0.4919165869817    -0.05130786618071
       351       0.491238496574    -0.05137917313502
       352      0.4909072190063    -0.05141392497586
       353      0.4902105662718    -0.05148682279918
       354      0.4890365297546    -0.05160911506584
       355      0.4875119613103    -0.05176686803657
       356       0.485801970376    -0.05194238456795
       357       0.484091826268    -0.05211640224756
       358      0.4825668628944    -0.05227029071394
       359      0.4813923562173    -0.05238798232067
       360      0.4806953561897    -0.05245748177351
       361      0.4803500536316    -0.05249181746805
       362      0.4796141080895    -0.05256478698107
       363      0.4783738492401    -0.05268710603986
       364      0.4767632782122    -0.05284470200593
       365      0.4749568123285    -0.05301975725632
       366      0.4731501698011    -0.05319297963876
       367      0.4715391433311    -0.05334584990321
       368      0.4702983422816    -0.05346254305398
       369      0.4695619962325    -0.05353135687628
       370      0.4692302316389    -0.05356225378417
       371      0.4685898183545    -0.05362170473124
       372      0.4675105594968    -0.05372132403007
       373      0.4661090660597    -0.05384960378176
       374      0.4645371178696    -0.05399200519069
       375      0.4629650272597    -0.05413282536134
       376      0.4615631666204    -0.05425702819072
